wavelength,n,k
301.41754,1.5368605273,0.0110321473
303.01373,1.5361726879,0.010997812
304.61,1.5354981254,0.0109637053
306.20624,1.5348366679,0.0109295999
307.80255,1.5341873672,0.0108963903
309.39886,1.533551053,0.0108632871
310.99524,1.5329268799,0.010830182
312.5916,1.5323148106,0.0107979851
314.18805,1.5317147646,0.0107667918
315.7845,1.5311249983,0.0107356933
317.38095,1.5305471109,0.0107045938
318.97748,1.529979451,0.0106734938
320.57397,1.5294227845,0.0106433169
322.17053,1.5288762476,0.0106141456
323.76712,1.5283388369,0.010585051
325.3637,1.5278114208,0.0105559566
326.96036,1.5272940533,0.0105268613
328.557,1.5267858102,0.0104987049
330.1537,1.5262866161,0.0104706122
331.7504,1.5257964909,0.0104434657
333.3471,1.5253144679,0.0104163763
334.94388,1.5248404822,0.0103892861
336.54065,1.5243755089,0.010362196
338.13745,1.5239186199,0.010336064
339.73428,1.5234688217,0.0103099763
341.33112,1.5230270425,0.0102848547
342.92798,1.5225933037,0.0102597699
344.52487,1.5221666461,0.0102346851
346.12177,1.5217470339,0.0102096001
347.71872,1.5213344485,0.0101854933
349.31567,1.5209279438,0.0101604286
350.91266,1.5205294277,0.0101373144
352.5096,1.5201370144,0.0101132464
354.10663,1.5197506057,0.0100901557
355.70367,1.5193702509,0.0100670759
357.30072,1.5189969299,0.0100439956
358.89777,1.5186296701,0.010020919
360.49484,1.5182674546,0.0099988423
362.09198,1.5179112592,0.0099767642
363.68906,1.5175611114,0.0099547016
365.2862,1.5172159857,0.0099336097
366.88336,1.5168759064,0.0099115527
368.48053,1.5165418487,0.0098904781
370.0777,1.5162128206,0.0098694316
371.6749,1.5158888221,0.0098493279
373.27213,1.515569824,0.0098282882
374.86932,1.5152549349,0.0098082165
376.46658,1.5149459955,0.0097881444
378.06384,1.5146411255,0.0097681183
379.6611,1.5143412422,0.0097489995
381.25836,1.5140453926,0.009728981
382.85568,1.5137536085,0.0097099111
384.45297,1.5134668152,0.0096908422
386.0503,1.5131840344,0.0096718368
387.64764,1.5129052906,0.0096537026
389.24496,1.5126305701,0.0096347047
390.84235,1.5123597965,0.009616638
392.4397,1.5120922096,0.0095985717
394.03705,1.5118295681,0.0095805878
395.63446,1.5115708687,0.0095634378
397.23184,1.5113151918,0.0095454614
398.82922,1.511062631,0.0095283981
400.42664,1.5108140897,0.0095113341
402.02405,1.5105694787,0.0094942703
403.6215,1.5103278878,0.0094772063
405.21893,1.5100894272,0.0094601421
406.81635,1.5098548818,0.009443191
408.4138,1.5096233586,0.0094271304
410.01123,1.509394861,0.0094110701
411.6087,1.5091693788,0.0093950093
413.2062,1.5089469053,0.0093789474
414.80365,1.5087274684,0.0093630186
416.40112,1.5085110487,0.0093478253
417.9986,1.5082975139,0.0093319038
419.5961,1.5080862748,0.009316846
421.19354,1.5078787755,0.0093017885
422.79108,1.507673428,0.0092867298
424.38858,1.5074709591,0.0092716719
425.98602,1.5072706656,0.0092566141
427.58356,1.5070733831,0.0092417184
429.18106,1.506878962,0.009227497
430.77856,1.5066865553,0.0092126093
432.37607,1.5064963322,0.0091985543
433.97357,1.5063091363,0.0091844995
435.57104,1.5061245999,0.0091704448
437.16855,1.5059414418,0.0091563899
438.76605,1.5057611147,0.0091425252
440.3636,1.5055829893,0.0091292791
441.9611,1.5054074953,0.0091154221
443.5586,1.5052334097,0.0091023703
445.1561,1.5050621457,0.0090891127
446.75357,1.5048928954,0.0090752673
448.35107,1.5047256573,0.0090622154
449.94858,1.5045604323,0.0090491633
451.54605,1.5043972278,0.0090363337
453.14355,1.5042358035,0.009024059
454.74103,1.5040758515,0.0090112371
456.33853,1.503918685,0.0089989542
457.93597,1.5037633022,0.0089861404
459.53345,1.5036091652,0.008974092
461.13092,1.5034570438,0.0089620435
462.72836,1.5033069414,0.0089499952
464.32584,1.5031588457,0.0089379462
465.92328,1.5030125115,0.0089258975
467.5207,1.502867445,0.0089138485
469.1181,1.5027243992,0.0089020666
470.71558,1.5025830879,0.0088907504
472.313,1.5024430656,0.0088789762
473.9104,1.5023047823,0.0088676525
475.50775,1.5021677894,0.0088558865
477.10516,1.5020325211,0.0088448413
478.70255,1.5018985502,0.0088337959
480.2999,1.5017665978,0.0088227506
481.89728,1.5016363577,0.0088117049
483.49463,1.5015071297,0.0088006596
485.09195,1.5013792157,0.0087896141
486.6893,1.5012530041,0.0087788803
488.28662,1.5011277999,0.0087685226
489.88388,1.5010039289,0.0087577974
491.4812,1.5008820676,0.0087474312
493.07846,1.5007615664,0.0087367139
494.67572,1.5006417316,0.0087266722
496.273,1.5005235728,0.0087162932
497.8702,1.5004064267,0.0087055885
499.46744,1.5002906306,0.0086955465
501.06464,1.5001765024,0.0086855046
502.66187,1.5000633784,0.0086758161
504.25903,1.4999512662,0.0086664204
505.8562,1.4998405225,0.0086563782
507.4533,1.4997310649,0.0086463362
509.05048,1.4996223423,0.0086366643
510.6476,1.4995152639,0.0086272513
512.2447,1.4994088141,0.008617588
513.84174,1.4993031336,0.0086081667
515.43884,1.4991990771,0.0085985116
517.0359,1.4990964226,0.0085894733
518.63293,1.4989949942,0.0085804351
520.22986,1.4988939677,0.0085713971
521.82684,1.4987939465,0.0085623588
523.4238,1.4986949336,0.0085533204
525.0208,1.4985973376,0.0085442817
526.61774,1.4985009261,0.0085352431
528.2146,1.4984049389,0.0085262047
529.8115,1.4983099564,0.008517166
531.4083,1.4982159862,0.008508558
533.0052,1.4981230173,0.0085000886
534.602,1.4980310607,0.0084914889
536.19885,1.4979401099,0.008483011
537.79553,1.4978497268,0.0084744202
539.39233,1.4977602382,0.0084659335
540.9891,1.4976718567,0.0084573506
542.58575,1.4975843994,0.0084493162
544.18243,1.4974980278,0.0084412817
545.77905,1.4974121272,0.0084327782
547.3757,1.4973272302,0.0084242124
548.9723,1.4972428653,0.0084161776
550.5689,1.4971589807,0.0084081427
552.1654,1.497076595,0.0084001082
553.7619,1.4969947526,0.0083920734
555.35846,1.4969133824,0.0083845335
556.9549,1.4968335346,0.0083770035
558.55133,1.4967541906,0.0083689687
560.14777,1.4966753529,0.0083614419
561.74414,1.4965970116,0.0083538986
563.34045,1.4965197059,0.0083458638
564.9368,1.4964433728,0.0083383501
566.5331,1.496367565,0.0083307936
568.12933,1.4962922392,0.008323289
569.7256,1.4962174429,0.0083162581
571.3218,1.4961436576,0.0083086885
572.91797,1.4960708806,0.0083011967
574.5141,1.4959985626,0.0082941658
576.1102,1.495926798,0.008287135
577.70624,1.4958554885,0.008279548
579.3023,1.4957852983,0.0082720737
580.8983,1.4957154282,0.0082650428
582.49426,1.4956462594,0.008258012
584.0902,1.4955779605,0.0082509812
585.68616,1.495509658,0.0082439501
587.28204,1.4954419393,0.008237502
588.8778,1.4953752335,0.0082308884
590.47363,1.4953095335,0.0082238575
592.06946,1.4952442431,0.0082168262
593.66516,1.4951789561,0.0082103959
595.26086,1.4951142742,0.0082037644
596.8565,1.4950506005,0.0081967334
598.45215,1.4949873194,0.0081903161
600.0477,1.4949246606,0.0081836714
601.64325,1.4948623849,0.0081772631
603.2388,1.4948007347,0.0081706089
604.8342,1.4947394659,0.0081642098
606.4296,1.4946788324,0.0081575471
608.025,1.4946192063,0.0081511566
609.6204,1.4945599417,0.0081451297
611.2157,1.4945006786,0.0081384534
612.811,1.4944420687,0.0081320761
614.4062,1.4943838129,0.0081260496
616.0014,1.494326217,0.0081200228
617.59656,1.4942689627,0.0081139961
619.19165,1.4942123811,0.0081079694
620.78674,1.4941561301,0.0081019425
622.3817,1.4941005636,0.008095916
623.9767,1.494045318,0.0080898892
625.57166,1.4939907599,0.0080838622
627.16656,1.4939365174,0.0080778353
628.76135,1.4938829771,0.0080718087
630.3562,1.4938297393,0.0080657818
631.9509,1.4937765044,0.0080597552
633.54565,1.4937239778,0.0080544402
635.1403,1.4936717464,0.0080487015
636.7349,1.4936202361,0.0080426748
638.32947,1.4935690083,0.008036648
639.924,1.4935185097,0.008031351
641.5185,1.4934682847,0.0080255942
643.1129,1.4934180623,0.0080203062
644.70734,1.4933685806,0.0080145405
646.30164,1.493319361,0.0080092613
647.89594,1.493270142,0.0080034868
649.4902,1.4932216785,0.0079982165
651.08435,1.4931742263,0.0079924331
652.6785,1.493126249,0.0079871718
654.2726,1.4930788037,0.0079813792
655.86664,1.493032369,0.0079761271
657.46063,1.4929853838,0.0079711047
659.05457,1.4929389575,0.0079660823
660.6485,1.4928935376,0.0079602717
662.2423,1.4928483371,0.0079550375
663.83606,1.4928031364,0.0079500152
665.4298,1.4927587359,0.0079449927
667.0235,1.492713732,0.0079399702
668.61707,1.4926701522,0.0079341375
670.2107,1.4926261437,0.0079289254
671.8042,1.4925827658,0.007923903
673.39764,1.4925395754,0.0079188809
674.9911,1.492497209,0.0079138582
676.5844,1.4924550221,0.007908836
678.17773,1.4924128331,0.0079038135
679.77094,1.4923706457,0.0078996329
681.36414,1.4923293044,0.0078947688
682.9573,1.4922881198,0.0078897463
684.55035,1.4922477914,0.0078847239
686.1434,1.4922067523,0.0078797015
687.73627,1.4921664358,0.0078746795
689.3292,1.4921271238,0.0078705255
690.922,1.4920870775,0.0078656347
692.5148,1.4920477759,0.0078606123
694.10754,1.4920086013,0.0078555899
695.7002,1.4919703136,0.0078514541
697.2928,1.4919321439,0.0078465452
698.8854,1.4918939726,0.0078424182
700.47784,1.4918558051,0.0078375007
702.0702,1.4918185398,0.0078324784
703.6626,1.4917804658,0.0078283648
705.2549,1.4917441225,0.0078234337
706.8471,1.4917070447,0.0078193292
708.43933,1.4916708002,0.0078143889
710.0314,1.4916346415,0.0078102935
711.6234,1.4915984818,0.0078053447
713.21545,1.4915623208,0.0078012579
714.8073,1.4915271017,0.0077972402
716.39923,1.4914919438,0.0077922777
717.99097,1.49145679,0.0077882046
719.5827,1.4914216339,0.0077841867
721.1744,1.4913874361,0.0077792112
722.766,1.4913532833,0.007775151
724.3575,1.4913191338,0.0077711334
725.9489,1.491285955,0.0077671158
727.54034,1.4912518331,0.0077621225
729.13165,1.4912186624,0.0077580803
730.7229,1.4911855162,0.0077540626
732.3141,1.4911533585,0.0077500448
733.9052,1.491120224,0.0077460272
735.4963,1.4910880747,0.0077420093
737.0873,1.491055933,0.0077379895
738.67816,1.4910237982,0.007732974
740.269,1.4909926519,0.0077289565
741.85974,1.4909605269,0.007724939
743.4505,1.4909293883,0.0077209211
745.04114,1.4908982508,0.0077169033
746.6317,1.4908671435,0.0077128858
748.22217,1.4908370124,0.0077089012
749.8126,1.4908068425,0.0077058506
751.40295,1.4907757894,0.007701833
752.9932,1.4907466161,0.0076978155
754.5834,1.4907164844,0.0076937979
756.1735,1.4906864083,0.0076897805
757.76355,1.4906572815,0.007685763
759.3536,1.4906281535,0.0076817453
760.9435,1.490599026,0.0076777958
762.53326,1.4905699724,0.0076747103
764.123,1.4905418501,0.0076706929
765.7127,1.490513647,0.0076666755
767.3023,1.4904846051,0.0076627434
768.8918,1.4904565735,0.0076596405
770.48126,1.4904293618,0.0076556231
772.0706,1.4904013394,0.0076517044
773.6599,1.4903741177,0.0076485882
775.24915,1.4903461035,0.0076445709
776.83826,1.4903190982,0.0076406652
778.4273,1.4902928691,0.0076375362
780.0163,1.4902657522,0.0076336391
781.60516,1.490238761,0.0076305017
783.194,1.4902126479,0.0076264843
784.7828,1.4901865345,0.0076226001
786.3714,1.4901604233,0.0076194497
787.95996,1.490134311,0.0076155743
789.54846,1.4901083455,0.0076124153
791.13684,1.4900830878,0.0076085486
792.7252,1.4900571303,0.0076053809
794.3135,1.4900320223,0.0076015227
795.9016,1.4900069155,0.0075985099
797.4897,1.4899818078,0.0075953293
799.0777,1.4899568729,0.0075914841
800.66565,1.4899325943,0.0075882951
802.2534,1.4899076687,0.0075844586
803.8412,1.4898835652,0.0075814457
805.42883,1.4898594634,0.0075782439
807.0164,1.4898353613,0.0075744202
808.6039,1.4898112588,0.0075714074
810.1913,1.4897873593,0.0075681929
811.7786,1.489764262,0.007564382
813.36584,1.4897409543,0.0075613693
814.953,1.4897170668,0.0075583565
816.54004,1.4896939704,0.0075551253
818.127,1.4896708734,0.0075513313
819.71387,1.4896480034,0.0075483186
821.30066,1.48962568,0.0075453061
822.8874,1.4896028181,0.0075422934
824.474,1.4895807254,0.007539041
826.06055,1.4895586328,0.0075352681
827.647,1.4895365406,0.0075322555
829.2333,1.4895144482,0.0075292429
830.8195,1.4894923575,0.0075262306
832.40564,1.4894702658,0.0075232181
833.9918,1.4894484377,0.0075202054
835.57776,1.4894273513,0.007517193
837.1636,1.489405991,0.0075141806
838.7494,1.4893841773,0.0075111682
840.3351,1.4893630907,0.0075078744
841.9207,1.4893422893,0.0075041434
843.5062,1.4893219168,0.007501131
845.0916,1.4893008302,0.0074981186
846.67694,1.4892800411,0.0074951062
848.2622,1.4892596569,0.0074923959
849.8473,1.4892388774,0.0074900816
851.4323,1.4892187951,0.0074870693
853.0173,1.4891987127,0.0074840569
854.6022,1.48917863,0.0074810445
856.1868,1.4891588732,0.0074780326
857.7715,1.489139469,0.0074750204
859.3561,1.489119387,0.007472008
860.94055,1.4890996407,0.0074689959
862.5249,1.4890805633,0.0074659837
864.1091,1.4890611444,0.0074629717
865.69324,1.4890414111,0.0074603064
867.27734,1.4890223337,0.0074579474
868.8613,1.4890036122,0.0074549354
870.4451,1.4889851816,0.0074519234
872.02893,1.4889661043,0.0074489112
873.6126,1.4889473955,0.0074462662
875.1961,1.4889289533,0.0074438874
876.7796,1.4889102518,0.0074408753
878.3629,1.4888921807,0.0074378634
879.94617,1.4888741092,0.0074352344
881.5293,1.4888560382,0.0074328397
883.1123,1.4888379677,0.0074298279
884.6953,1.4888198962,0.007426816
886.27814,1.4888018251,0.0074242028
887.86084,1.4887841569,0.0074217924
889.4435,1.4887666833,0.0074187805
891.026,1.4887490232,0.0074161792
892.6084,1.4887315425,0.0074137571
894.19073,1.4887138904,0.0074107454
895.77295,1.4886968243,0.0074081558
897.3551,1.4886797576,0.0074057219
898.937,1.4886626926,0.0074031403
900.5189,1.4886456268,0.0074006989
902.1007,1.488628561,0.0073976872
903.6823,1.4886119373,0.0073951172
905.264,1.488595429,0.0073926639
906.8454,1.4885788136,0.0073901017
908.42676,1.4885622993,0.0073876411
910.00793,1.4885456919,0.0073850865
911.58905,1.4885296309,0.0073826183
913.1701,1.4885135696,0.0073800712
914.751,1.4884975092,0.0073775955
916.3317,1.4884814498,0.0073745843
917.9125,1.488465388,0.0073720485
919.49304,1.4884493278,0.007370041
921.07355,1.4884332673,0.0073675501
922.6538,1.4884176955,0.0073650261
924.2341,1.4884021483,0.0073625278
925.81415,1.4883865834,0.0073600111
927.3942,1.488371527,0.0073575054
928.9741,1.4883559695,0.0073549962
930.5539,1.4883404159,0.0073524832
932.1335,1.4883253608,0.0073499814
933.7131,1.4883103049,0.007347974
935.2925,1.4882952502,0.00734545
936.8719,1.4882801947,0.0073429593
938.45105,1.4882651404,0.0073404281
940.0301,1.4882506135,0.0073379448
941.6091,1.4882360309,0.0073359375
943.188,1.4882209761,0.0073333952
944.7667,1.4882064605,0.0073309229
946.34534,1.48819241,0.0073289157
947.9238,1.4881778145,0.0073263629
949.50214,1.4881633105,0.0073239015
951.08044,1.4881492599,0.0073218943
952.65857,1.4881352099,0.0073193307
954.23663,1.4881211602,0.00731688
955.8146,1.4881071101,0.0073148729
957.3923,1.4880930611,0.0073128659
958.9699,1.4880790122,0.0073102883
960.5475,1.4880649624,0.0073078518
962.1249,1.4880514913,0.0073058448
963.7023,1.4880378641,0.0073038377
965.2794,1.4880244003,0.0073012462
966.85645,1.4880107668,0.0072988238
968.4334,1.4879973101,0.0072968169
970.01013,1.4879836709,0.0072948101
971.5868,1.4879702213,0.0072928033
973.1634,1.4879571762,0.0072901945
974.73987,1.4879441313,0.0072877894
976.3161,1.4879310875,0.0072857827
977.8923,1.487918043,0.0072837758
979.4684,1.4879049988,0.007281769
981.0443,1.4878919552,0.0072797623
982.6201,1.4878789118,0.0072771335
984.1958,1.4878664935,0.0072747489
985.77136,1.4878538245,0.0072727422
987.3468,1.4878407808,0.0072707355
988.92206,1.4878283736,0.0072687289
990.49725,1.4878156952,0.0072667223
992.07227,1.4878032947,0.0072647158
993.64716,1.48779061,0.0072627092
995.222,1.4877782152,0.0072607025
996.7967,1.4877661759,0.007258044
998.3712,1.4877541373,0.0072556896
999.9455,1.4877421114,0.0072536852
1011.69275,1.487652421,0.0072387368
1015.112,1.4876275896,0.0072347343
1018.53125,1.487602209,0.0072300017
1021.9505,1.487577418,0.0072258669
1025.3698,1.4875535836,0.0072219306
1028.789,1.4875292045,0.0072172409
1032.2083,1.4875053191,0.0072130532
1035.6274,1.4874816736,0.0072091123
1039.0466,1.4874580176,0.0072051696
1042.466,1.4874343504,0.0072005313
1045.8853,1.4874113547,0.0071962791
1049.3044,1.487388658,0.0071923318
1052.7238,1.4873659501,0.0071883826
1056.1431,1.4873438764,0.0071844321
1059.5623,1.4873215105,0.0071804801
1062.9817,1.4872993946,0.0071765263
1066.401,1.4872776416,0.0071725712
1069.8203,1.4872564772,0.0071686147
1073.2396,1.4872351117,0.0071646567
1076.6589,1.48721391,0.0071612729
1080.0784,1.4871931144,0.0071577361
1083.4978,1.4871723116,0.0071537736
1086.9172,1.4871520488,0.0071498098
1090.3368,1.4871316827,0.0071458443
1093.7562,1.4871113887,0.0071424083
1097.1758,1.4870915476,0.0071389095
1100.5955,1.4870722143,0.0071349399
1104.015,1.4870528459,0.0071314769
1107.4347,1.4870334855,0.0071279969
1110.8542,1.4870146121,0.0071240236
1114.274,1.4869957308,0.0071205364
1117.6937,1.486976844,0.0071170724
1121.1135,1.486957951,0.0071135712
1124.5334,1.4869395228,0.0071101162
1127.9534,1.4869216121,0.007106602
1131.3733,1.4869036961,0.0071031547
1134.7932,1.4868857754,0.0070996292
1138.2133,1.4868678487,0.0070966414
1141.6334,1.4868499162,0.0070932036
1145.0535,1.4868324242,0.0070896631
1148.4738,1.4868154774,0.00708623
1151.894,1.4867985261,0.0070826811
1155.3143,1.48678157,0.0070796888
1158.7347,1.4867646087,0.0070766957
1162.1552,1.4867476428,0.0070732689
1165.5757,1.4867311034,0.0070697069
1168.9963,1.4867151264,0.0070667112
1172.4169,1.4866991455,0.0070637148
1175.8376,1.4866831601,0.0070607175
1179.2584,1.4866671703,0.0070572926
1182.6793,1.4866511762,0.0070537205
1186.1002,1.4866356049,0.007050721
1189.5212,1.4866201763,0.0070477206
1192.9423,1.486604597,0.0070447194
1196.3635,1.4865895875,0.0070417175
1199.7848,1.4865745741,0.0070387148
1203.206,1.486559558,0.0070357116
1206.6276,1.4865445369,0.0070327074
1210.0491,1.4865299458,0.0070297027
1213.4706,1.4865154865,0.0070266973
1216.8923,1.4865008923,0.0070236912
1220.3141,1.4864868606,0.0070206844
1223.736,1.4864728255,0.0070176769
1227.158,1.4864587881,0.0070146689
1230.58,1.4864447479,0.0070121068
1234.0022,1.4864307041,0.0070096509
1237.4244,1.4864166581,0.007006641
1240.8468,1.4864030652,0.0070036304
1244.2693,1.4863900168,0.0070006193
1247.6918,1.4863765024,0.0069980718
1251.1145,1.4863629132,0.0069955954
1254.5374,1.4863498572,0.0069925824
1257.9602,1.4863367997,0.0069895692
1261.3832,1.4863237396,0.0069870369
1264.8064,1.4863111634,0.0069845408
1268.2296,1.4862986126,0.006981526
1271.653,1.4862855457,0.006979007
1275.0764,1.4862729788,0.0069764947
1278.5,1.4862609133,0.0069734783
1281.9237,1.4862488462,0.0069709744
1285.3475,1.486236777,0.0069684442
1288.7715,1.4862247058,0.006965951
1292.1956,1.4862126331,0.0069634083
1295.6199,1.4862005587,0.0069603897
1299.0442,1.4861884832,0.0069579139
1302.4686,1.4861769555,0.0069553515
1305.8933,1.4861653269,0.0069528878
1309.3181,1.4861538091,0.0069503116
1312.7429,1.4861421644,0.0069478607
1316.168,1.4861306574,0.0069452702
1319.5931,1.4861195802,0.0069428328
1323.0184,1.4861085016,0.0069408185
1326.444,1.4860974211,0.0069382058
1329.8695,1.4860863405,0.0069357892
1333.2953,1.4860752582,0.0069331613
1336.7212,1.4860647955,0.0069307591
1340.1472,1.4860540914,0.0069287439
1343.5735,1.486043006,0.0069260926
1346.9999,1.4860325635,0.0069237127
1350.4264,1.4860218332,0.0069216969
1353.853,1.4860114055,0.0069190216
1357.2799,1.4860013251,0.006916665
1360.7068,1.4859912444,0.0069146489
1364.134,1.4859811626,0.0069119488
1367.5613,1.4859710806,0.0069096161
1370.9889,1.4859609977,0.0069075995
1374.4165,1.4859509148,0.0069048744
1377.8444,1.485940831,0.0069025662
1381.2723,1.4859307472,0.0069005494
1384.7004,1.4859213967,0.0068985326
1388.1289,1.4859115776,0.0068965155
1391.5574,1.4859022433,0.0068937478
1394.9861,1.4858924071,0.0068914814
1398.4149,1.4858830898,0.0068894644
1401.844,1.4858740125,0.0068874472
1405.2732,1.4858641505,0.0068854301
1408.7028,1.4858548575,0.0068834128
1412.1323,1.4858457803,0.0068805934
1415.5621,1.485836703,0.0068783784
1418.9921,1.4858276255,0.0068763612
1422.4222,1.4858185484,0.0068743441
1425.8527,1.4858103072,0.0068723268
1429.2832,1.4858013937,0.0068703097
1432.7141,1.4857923164,0.0068682925
1436.145,1.4857841018,0.0068662755
1439.5762,1.485775163,0.0068642585
