wavelength,n,k
3.014175399999999740e+02,1.594590448965548468e+00,0.000000000000000000e+00
3.030137300000000096e+02,1.593882154462011203e+00,0.000000000000000000e+00
3.046100000000000136e+02,1.593173048648319101e+00,0.000000000000000000e+00
3.062062399999999798e+02,1.592463855964401764e+00,0.000000000000000000e+00
3.078025499999999965e+02,1.591753736767026250e+00,0.000000000000000000e+00
3.093988600000000133e+02,1.591043523756408895e+00,0.000000000000000000e+00
3.109952400000000239e+02,1.590333268913203035e+00,0.000000000000000000e+00
3.125916000000000281e+02,1.589622139128636924e+00,0.000000000000000000e+00
3.141880499999999756e+02,1.588911761016873481e+00,0.000000000000000000e+00
3.157844999999999800e+02,1.588199684428804881e+00,0.000000000000000000e+00
3.173809499999999844e+02,1.587488322772206306e+00,0.000000000000000000e+00
3.189774800000000141e+02,1.586776115426668410e+00,0.000000000000000000e+00
3.205739699999999743e+02,1.586063832182333488e+00,0.000000000000000000e+00
3.221705299999999852e+02,1.585351529024758177e+00,0.000000000000000000e+00
3.237671199999999772e+02,1.584638284239663353e+00,0.000000000000000000e+00
3.253636999999999944e+02,1.583924969937790639e+00,0.000000000000000000e+00
3.269603599999999801e+02,1.583210697036189440e+00,0.000000000000000000e+00
3.285570000000000164e+02,1.582497292635415276e+00,0.000000000000000000e+00
3.301537000000000148e+02,1.581782995350725196e+00,0.000000000000000000e+00
3.317504000000000133e+02,1.581067704998740053e+00,0.000000000000000000e+00
3.333471000000000117e+02,1.580353294112657014e+00,0.000000000000000000e+00
3.349438799999999787e+02,1.579637009036979345e+00,0.000000000000000000e+00
3.365406500000000278e+02,1.578921582888301867e+00,0.000000000000000000e+00
3.381374500000000012e+02,1.578205218963310452e+00,0.000000000000000000e+00
3.397342800000000125e+02,1.577488809640952505e+00,0.000000000000000000e+00
3.413311199999999985e+02,1.577143281847473988e+00,0.000000000000000000e+00
3.429279799999999909e+02,1.576866437995024794e+00,0.000000000000000000e+00
3.445248700000000213e+02,1.576591508313901935e+00,0.000000000000000000e+00
3.461217700000000264e+02,1.576316577238214389e+00,0.000000000000000000e+00
3.477187200000000189e+02,1.576041632331549369e+00,0.000000000000000000e+00
3.493156700000000114e+02,1.575765714933431649e+00,0.000000000000000000e+00
3.509126600000000167e+02,1.575490746049698965e+00,0.000000000000000000e+00
3.525095999999999776e+02,1.575215813131078280e+00,0.000000000000000000e+00
3.541066299999999956e+02,1.574940854430614490e+00,0.000000000000000000e+00
3.557036699999999882e+02,1.574664907668885672e+00,0.000000000000000000e+00
3.573007200000000125e+02,1.574389947489525543e+00,0.000000000000000000e+00
3.588977699999999800e+02,1.574114986928864424e+00,0.000000000000000000e+00
3.604948400000000106e+02,1.573839035419593690e+00,0.000000000000000000e+00
3.620919799999999782e+02,1.573564052365597155e+00,0.000000000000000000e+00
3.636890599999999836e+02,1.573288106206511605e+00,0.000000000000000000e+00
3.652862000000000080e+02,1.573013121166176198e+00,0.000000000000000000e+00
3.668833599999999819e+02,1.572737141881167755e+00,0.000000000000000000e+00
3.684805299999999875e+02,1.572461190682705290e+00,0.000000000000000000e+00
3.700776999999999930e+02,1.572186184702898171e+00,0.000000000000000000e+00
3.716748999999999796e+02,1.571910198399269154e+00,0.000000000000000000e+00
3.732721300000000042e+02,1.571634212087281712e+00,0.000000000000000000e+00
3.748693200000000161e+02,1.571358227551219899e+00,0.000000000000000000e+00
3.764665800000000218e+02,1.571082236015786338e+00,0.000000000000000000e+00
3.780638400000000274e+02,1.570806239175565944e+00,0.000000000000000000e+00
3.796610999999999763e+02,1.570530242760074913e+00,0.000000000000000000e+00
3.812583599999999819e+02,1.570254250722449285e+00,0.000000000000000000e+00
3.828556800000000067e+02,1.569978238917690616e+00,0.000000000000000000e+00
3.844529699999999934e+02,1.569702180843262962e+00,0.000000000000000000e+00
3.860502999999999929e+02,1.569425228316667864e+00,0.000000000000000000e+00
3.876476400000000240e+02,1.569149222301394753e+00,0.000000000000000000e+00
3.892449599999999919e+02,1.568873138305439285e+00,0.000000000000000000e+00
3.908423500000000104e+02,1.568596191130084083e+00,0.000000000000000000e+00
3.924397000000000162e+02,1.568320098701168064e+00,0.000000000000000000e+00
3.940370500000000220e+02,1.568050216848089651e+00,0.000000000000000000e+00
3.956344599999999900e+02,1.567859943954643009e+00,0.000000000000000000e+00
3.972318399999999770e+02,1.567674255898196645e+00,0.000000000000000000e+00
3.988292200000000207e+02,1.567488473283478845e+00,0.000000000000000000e+00
4.004266400000000203e+02,1.567301871306390426e+00,0.000000000000000000e+00
4.020240499999999884e+02,1.567116176616957679e+00,0.000000000000000000e+00
4.036215000000000259e+02,1.566930480043105867e+00,0.000000000000000000e+00
4.052189300000000003e+02,1.566744672903309654e+00,0.000000000000000000e+00
4.068163499999999999e+02,1.566558082862582690e+00,0.000000000000000000e+00
4.084137999999999806e+02,1.566372383065304241e+00,0.000000000000000000e+00
4.100112300000000118e+02,1.566186565078222070e+00,0.000000000000000000e+00
4.116086999999999989e+02,1.565999982346313324e+00,0.000000000000000000e+00
4.132062000000000239e+02,1.565814267013321714e+00,0.000000000000000000e+00
4.148036500000000046e+02,1.565628431135079213e+00,0.000000000000000000e+00
4.164011199999999917e+02,1.565441854477281236e+00,0.000000000000000000e+00
4.179986000000000104e+02,1.565256007530622995e+00,0.000000000000000000e+00
4.195960999999999785e+02,1.565069434032597684e+00,0.000000000000000000e+00
4.211935399999999845e+02,1.564883576814433797e+00,0.000000000000000000e+00
4.227910800000000222e+02,1.564697000930016291e+00,0.000000000000000000e+00
4.243885799999999904e+02,1.564511131981992209e+00,0.000000000000000000e+00
4.259860199999999963e+02,1.564324574319632566e+00,0.000000000000000000e+00
4.275835599999999772e+02,1.564138686933013611e+00,0.000000000000000000e+00
4.291810600000000022e+02,1.563951963200735928e+00,0.000000000000000000e+00
4.307785600000000272e+02,1.563765409090480674e+00,0.000000000000000000e+00
4.323760700000000270e+02,1.563579506903566285e+00,0.000000000000000000e+00
4.339735699999999952e+02,1.563401352221245322e+00,0.000000000000000000e+00
4.355710399999999822e+02,1.563264638168817777e+00,0.000000000000000000e+00
4.371685499999999820e+02,1.563136322860421590e+00,0.000000000000000000e+00
4.387660500000000070e+02,1.563008823407492365e+00,0.000000000000000000e+00
4.403636000000000195e+02,1.562881123604134448e+00,0.000000000000000000e+00
4.419610999999999876e+02,1.562752815519659944e+00,0.000000000000000000e+00
4.435586000000000126e+02,1.562625310150658198e+00,0.000000000000000000e+00
4.451560999999999808e+02,1.562497601441970474e+00,0.000000000000000000e+00
4.467535700000000247e+02,1.562369303721319547e+00,0.000000000000000000e+00
4.483510699999999929e+02,1.562241796837457786e+00,0.000000000000000000e+00
4.499485799999999927e+02,1.562114069534351168e+00,0.000000000000000000e+00
4.515460499999999797e+02,1.561985782167919057e+00,0.000000000000000000e+00
4.531435500000000047e+02,1.561858042835280180e+00,0.000000000000000000e+00
4.547410300000000234e+02,1.561729758847538507e+00,0.000000000000000000e+00
4.563385299999999916e+02,1.561602245139576128e+00,0.000000000000000000e+00
4.579359699999999975e+02,1.561474497966140795e+00,0.000000000000000000e+00
4.595334500000000162e+02,1.561346223552733559e+00,0.000000000000000000e+00
4.611309200000000033e+02,1.561218464051437271e+00,0.000000000000000000e+00
4.627283600000000092e+02,1.561090199709988413e+00,0.000000000000000000e+00
4.643258400000000279e+02,1.560962680856239126e+00,0.000000000000000000e+00
4.659232799999999770e+02,1.560834906669885003e+00,0.000000000000000000e+00
4.675206999999999766e+02,1.560706646966981914e+00,0.000000000000000000e+00
4.691181000000000267e+02,1.560578865958645034e+00,0.000000000000000000e+00
4.707155799999999886e+02,1.560450608296127140e+00,0.000000000000000000e+00
4.723129999999999882e+02,1.560322814508124933e+00,0.000000000000000000e+00
4.739103999999999814e+02,1.560194571903968486e+00,0.000000000000000000e+00
4.755077499999999873e+02,1.560066770715722972e+00,0.000000000000000000e+00
4.771051600000000121e+02,1.559938531148715724e+00,0.000000000000000000e+00
4.787025499999999738e+02,1.559810715382811797e+00,0.000000000000000000e+00
4.802998999999999796e+02,1.559682188575390871e+00,0.000000000000000000e+00
4.818972800000000234e+02,1.559553956841126077e+00,0.000000000000000000e+00
4.834946299999999724e+02,1.559426129650619330e+00,0.000000000000000000e+00
4.850919499999999971e+02,1.559297907852792209e+00,0.000000000000000000e+00
4.866893000000000029e+02,1.559170068166301881e+00,0.000000000000000000e+00
4.882866200000000276e+02,1.559041851464042061e+00,0.000000000000000000e+00
4.898838799999999765e+02,1.558914007359033738e+00,0.000000000000000000e+00
4.914812000000000012e+02,1.558785472125421290e+00,0.000000000000000000e+00
4.930784600000000069e+02,1.558657266148719023e+00,0.000000000000000000e+00
4.946757200000000125e+02,1.558529403773527999e+00,0.000000000000000000e+00
4.962730000000000246e+02,1.558401202925229656e+00,0.000000000000000000e+00
4.978702000000000112e+02,1.558273332880667050e+00,0.000000000000000000e+00
4.994674400000000105e+02,1.558144795768245716e+00,0.000000000000000000e+00
5.010646399999999971e+02,1.558016608948044945e+00,0.000000000000000000e+00
5.026618700000000217e+02,1.557888718126054783e+00,0.000000000000000000e+00
5.042590299999999957e+02,1.557760180879417256e+00,0.000000000000000000e+00
5.058562000000000012e+02,1.557632003251965047e+00,0.000000000000000000e+00
5.074533000000000129e+02,1.557509233005789584e+00,0.000000000000000000e+00
5.090504799999999932e+02,1.557406978784489082e+00,0.000000000000000000e+00
5.106476000000000113e+02,1.557326010469308075e+00,0.000000000000000000e+00
5.122446999999999662e+02,1.557245670986938668e+00,0.000000000000000000e+00
5.138417399999999589e+02,1.557165333547963604e+00,0.000000000000000000e+00
5.154388400000000274e+02,1.557084604300147612e+00,0.000000000000000000e+00
5.170358999999999696e+02,1.557003651577155035e+00,0.000000000000000000e+00
5.186329299999999876e+02,1.556923312210336974e+00,0.000000000000000000e+00
5.202298600000000306e+02,1.556842573818552289e+00,0.000000000000000000e+00
5.218268399999999474e+02,1.556761633557832036e+00,0.000000000000000000e+00
5.234238000000000284e+02,1.556681292725398569e+00,0.000000000000000000e+00
5.250208000000000084e+02,1.556600534882916609e+00,0.000000000000000000e+00
5.266177400000000262e+02,1.556519605068398704e+00,0.000000000000000000e+00
5.282146000000000186e+02,1.556439264357695862e+00,0.000000000000000000e+00
5.298115000000000236e+02,1.556358494331228304e+00,0.000000000000000000e+00
5.314083000000000538e+02,1.556277579553051682e+00,0.000000000000000000e+00
5.330051999999999452e+02,1.556197232413774945e+00,0.000000000000000000e+00
5.346019999999999754e+02,1.556116449664332491e+00,0.000000000000000000e+00
5.361988499999999931e+02,1.556035542162877761e+00,0.000000000000000000e+00
5.377955299999999852e+02,1.555955201569462210e+00,0.000000000000000000e+00
5.393923300000000154e+02,1.555874401096291937e+00,0.000000000000000000e+00
5.409891000000000076e+02,1.555793506105001445e+00,0.000000000000000000e+00
5.425857499999999618e+02,1.555713162194565014e+00,0.000000000000000000e+00
5.441824299999999539e+02,1.555632351734509866e+00,0.000000000000000000e+00
5.457790499999999838e+02,1.555551472683903258e+00,0.000000000000000000e+00
5.473757000000000517e+02,1.555470650594883875e+00,0.000000000000000000e+00
5.489723000000000184e+02,1.555389776430180060e+00,0.000000000000000000e+00
5.505688999999999851e+02,1.555309427197371086e+00,0.000000000000000000e+00
5.521653999999999769e+02,1.555228595024279903e+00,0.000000000000000000e+00
5.537618999999999687e+02,1.555147734222446010e+00,0.000000000000000000e+00
5.553584600000000364e+02,1.555067382425344702e+00,0.000000000000000000e+00
5.569548999999999523e+02,1.554986535517867363e+00,0.000000000000000000e+00
5.585513300000000072e+02,1.554905686689592503e+00,0.000000000000000000e+00
5.601477700000000368e+02,1.554824827962908662e+00,0.000000000000000000e+00
5.617441400000000158e+02,1.554743986205733730e+00,0.000000000000000000e+00
5.633404500000000326e+02,1.554663637738641135e+00,0.000000000000000000e+00
5.649367999999999483e+02,1.554582765744741746e+00,0.000000000000000000e+00
5.665330999999999904e+02,1.554501935989187622e+00,0.000000000000000000e+00
5.681293299999999817e+02,1.554421588507546526e+00,0.000000000000000000e+00
5.697255999999999858e+02,1.554340700985796353e+00,0.000000000000000000e+00
5.713218000000000529e+02,1.554259885057138524e+00,0.000000000000000000e+00
5.729179699999999684e+02,1.554178990638167557e+00,0.000000000000000000e+00
5.745140999999999849e+02,1.554098180631812376e+00,0.000000000000000000e+00
5.761101999999999634e+02,1.554017828787290556e+00,0.000000000000000000e+00
5.777062399999999798e+02,1.553936923491232802e+00,0.000000000000000000e+00
5.793022999999999456e+02,1.553856128460400887e+00,0.000000000000000000e+00
5.808982999999999493e+02,1.553775209782318534e+00,0.000000000000000000e+00
5.824942600000000539e+02,1.553694422822044174e+00,0.000000000000000000e+00
5.840901999999999816e+02,1.553613497011192557e+00,0.000000000000000000e+00
5.856861599999999726e+02,1.553532715295238731e+00,0.000000000000000000e+00
5.872820400000000518e+02,1.553452360397682419e+00,0.000000000000000000e+00
5.888777999999999793e+02,1.553374359735549826e+00,0.000000000000000000e+00
5.904736299999999574e+02,1.553314593944131738e+00,0.000000000000000000e+00
5.920694600000000491e+02,1.553266379541809572e+00,0.000000000000000000e+00
5.936651600000000144e+02,1.553218167580735054e+00,0.000000000000000000e+00
5.952608599999999797e+02,1.553169955613576958e+00,0.000000000000000000e+00
5.968564999999999827e+02,1.553121743200454263e+00,0.000000000000000000e+00
5.984521499999999605e+02,1.553073529029398880e+00,0.000000000000000000e+00
6.000476999999999634e+02,1.553025317879944245e+00,0.000000000000000000e+00
6.016432499999999663e+02,1.552977104434539513e+00,0.000000000000000000e+00
6.032387999999999693e+02,1.552928889582231520e+00,0.000000000000000000e+00
6.048342000000000098e+02,1.552880678079147536e+00,0.000000000000000000e+00
6.064296000000000504e+02,1.552832465896993197e+00,0.000000000000000000e+00
6.080249999999999773e+02,1.552784252545145183e+00,0.000000000000000000e+00
6.096204000000000178e+02,1.552736037333378727e+00,0.000000000000000000e+00
6.112156999999999698e+02,1.552687823283775970e+00,0.000000000000000000e+00
6.128110000000000355e+02,1.552639608579797548e+00,0.000000000000000000e+00
6.144062000000000126e+02,1.552591396878217234e+00,0.000000000000000000e+00
6.160013999999999896e+02,1.552543182742114114e+00,0.000000000000000000e+00
6.175965599999999540e+02,1.552494968565696576e+00,0.000000000000000000e+00
6.191916499999999814e+02,1.552446755266487122e+00,0.000000000000000000e+00
6.207867400000000089e+02,1.552398540086564305e+00,0.000000000000000000e+00
6.223817000000000235e+02,1.552350328241659749e+00,0.000000000000000000e+00
6.239767000000000507e+02,1.552302113934142858e+00,0.000000000000000000e+00
6.255716599999999517e+02,1.552253208051176170e+00,0.000000000000000000e+00
6.271665600000000040e+02,1.552205376218455113e+00,0.000000000000000000e+00
6.287613499999999931e+02,1.552157469821787705e+00,0.000000000000000000e+00
6.303561999999999443e+02,1.552108551417515248e+00,0.000000000000000000e+00
6.319509000000000469e+02,1.552060041739783403e+00,0.000000000000000000e+00
6.335456500000000233e+02,1.552011825669916467e+00,0.000000000000000000e+00
6.351403000000000247e+02,1.551963612071164622e+00,0.000000000000000000e+00
6.367349000000000387e+02,1.551915398667737422e+00,0.000000000000000000e+00
6.383294700000000148e+02,1.551867184297208935e+00,0.000000000000000000e+00
6.399239999999999782e+02,1.551818969266764325e+00,0.000000000000000000e+00
6.415185000000000173e+02,1.551770753304580808e+00,0.000000000000000000e+00
6.431128999999999678e+02,1.551722539853755300e+00,0.000000000000000000e+00
6.447073400000000447e+02,1.551674323814324019e+00,0.000000000000000000e+00
6.463016400000000203e+02,1.551626108767999224e+00,0.000000000000000000e+00
6.478959399999999960e+02,1.551577894184801076e+00,0.000000000000000000e+00
6.494901999999999589e+02,1.551529678469557805e+00,0.000000000000000000e+00
6.510843499999999722e+02,1.551481465159344264e+00,0.000000000000000000e+00
6.526784999999999854e+02,1.551433249024086747e+00,0.000000000000000000e+00
6.542726000000000113e+02,1.551385033519746770e+00,0.000000000000000000e+00
6.558666399999999612e+02,1.551336819830180014e+00,0.000000000000000000e+00
6.574606300000000374e+02,1.551288604778136238e+00,0.000000000000000000e+00
6.590545700000000124e+02,1.551240390406672942e+00,0.000000000000000000e+00
6.606485000000000127e+02,1.551192173429522869e+00,0.000000000000000000e+00
6.622423000000000002e+02,1.551143959586092524e+00,0.000000000000000000e+00
6.638360599999999749e+02,1.551095745482047317e+00,0.000000000000000000e+00
6.654298000000000002e+02,1.551047530121157703e+00,0.000000000000000000e+00
6.670235000000000127e+02,1.550999314108366223e+00,0.000000000000000000e+00
6.686170700000000124e+02,1.550951100166594543e+00,0.000000000000000000e+00
6.702106999999999744e+02,1.550902884026710504e+00,0.000000000000000000e+00
6.718042000000000371e+02,1.550854668814553916e+00,0.000000000000000000e+00
6.733976400000000240e+02,1.550806456260802602e+00,0.000000000000000000e+00
6.749910999999999603e+02,1.550758238848650494e+00,0.000000000000000000e+00
6.765843999999999596e+02,1.550710025277353576e+00,0.000000000000000000e+00
6.781777299999999968e+02,1.550661809272832592e+00,0.000000000000000000e+00
6.797709399999999960e+02,1.550613595042244608e+00,0.000000000000000000e+00
6.813641400000000203e+02,1.550565380788338832e+00,0.000000000000000000e+00
6.829573000000000320e+02,1.550517164624946265e+00,0.000000000000000000e+00
6.845503499999999804e+02,1.550468949622841208e+00,0.000000000000000000e+00
6.861434000000000424e+02,1.550420734366664943e+00,0.000000000000000000e+00
6.877362699999999904e+02,1.550372522941263931e+00,0.000000000000000000e+00
6.893292000000000144e+02,1.550324306255379980e+00,0.000000000000000000e+00
6.909220000000000255e+02,1.550276092980374054e+00,0.000000000000000000e+00
6.925148000000000366e+02,1.550227878081066102e+00,0.000000000000000000e+00
6.941075399999999718e+02,1.550179663161652011e+00,0.000000000000000000e+00
6.957001999999999953e+02,1.550131448777758880e+00,0.000000000000000000e+00
6.972928000000000566e+02,1.550083234343523575e+00,0.000000000000000000e+00
6.988854000000000042e+02,1.550035018045992086e+00,0.000000000000000000e+00
7.004778400000000147e+02,1.549986806418367058e+00,0.000000000000000000e+00
7.020701999999999998e+02,1.549938592178221164e+00,0.000000000000000000e+00
7.036625999999999976e+02,1.549890377847598755e+00,0.000000000000000000e+00
7.052549000000000206e+02,1.549842163347958213e+00,0.000000000000000000e+00
7.068470999999999549e+02,1.549793949844304297e+00,0.000000000000000000e+00
7.084393300000000409e+02,1.549745733568526074e+00,0.000000000000000000e+00
7.100313999999999623e+02,1.549697521985914817e+00,0.000000000000000000e+00
7.116233999999999469e+02,1.549649309083314996e+00,0.000000000000000000e+00
7.132154500000000326e+02,1.549601094395382628e+00,0.000000000000000000e+00
7.148073000000000548e+02,1.549551942339253419e+00,0.000000000000000000e+00
7.163992299999999886e+02,1.549503665781579498e+00,0.000000000000000000e+00
7.179909699999999475e+02,1.549455454886712769e+00,0.000000000000000000e+00
7.195827000000000453e+02,1.549407240799264951e+00,0.000000000000000000e+00
7.211743999999999915e+02,1.549359027433083291e+00,0.000000000000000000e+00
7.227659999999999627e+02,1.549310811762018014e+00,0.000000000000000000e+00
7.243574999999999591e+02,1.549262600643217969e+00,0.000000000000000000e+00
